# Output of JWST_backgrounds version 1.1.1
# background cache version 1.0

# for RA=261.6833333, DEC=-73.3322222 at wavelength=4.4 micron 
# Columns: 
# - Calendar day (Jan1=0) 
# - Total background (MJy/sr)
68    0.3020
69    0.2982
70    0.2945
71    0.2909
72    0.2874
73    0.2841
74    0.2808
75    0.2775
76    0.2744
77    0.2714
78    0.2685
79    0.2658
80    0.2649
81    0.2622
82    0.2635
83    0.2608
84    0.2582
85    0.2558
86    0.2533
87    0.2509
88    0.2486
89    0.2463
90    0.2441
91    0.2420
92    0.2400
93    0.2379
94    0.2361
95    0.2341
96    0.2324
97    0.2306
98    0.2313
99    0.2296
100    0.2279
101    0.2263
102    0.2247
103    0.2233
104    0.2218
105    0.2204
106    0.2191
107    0.2177
108    0.2165
109    0.2183
110    0.2171
111    0.2160
112    0.2149
113    0.2139
114    0.2127
115    0.2118
116    0.2108
117    0.2100
118    0.2120
119    0.2112
120    0.2103
121    0.2096
122    0.2087
123    0.2080
124    0.2074
125    0.2068
126    0.2061
127    0.2054
128    0.2049
129    0.2044
130    0.2039
131    0.2035
132    0.2032
133    0.2029
134    0.2025
135    0.2023
136    0.2022
137    0.2019
138    0.2018
139    0.2040
140    0.2038
141    0.2037
142    0.2071
143    0.2070
144    0.2069
145    0.2072
146    0.2074
147    0.2077
148    0.2080
149    0.2079
150    0.2080
151    0.2075
152    0.2070
153    0.2066
154    0.2063
155    0.2062
156    0.2063
157    0.2064
158    0.2065
159    0.2068
160    0.2072
161    0.2077
162    0.2082
163    0.2090
164    0.2100
165    0.2113
166    0.2127
167    0.2143
168    0.2157
169    0.2172
170    0.2183
171    0.2193
172    0.2200
173    0.2197
174    0.2198
175    0.2195
176    0.2190
177    0.2183
178    0.2177
179    0.2171
180    0.2168
181    0.2167
182    0.2169
183    0.2169
184    0.2173
185    0.2176
186    0.2165
187    0.2170
188    0.2176
189    0.2181
190    0.2188
191    0.2196
192    0.2203
193    0.2210
194    0.2218
195    0.2227
196    0.2237
197    0.2247
198    0.2258
199    0.2270
200    0.2282
201    0.2291
202    0.2298
203    0.2302
204    0.2308
205    0.2317
206    0.2323
207    0.2345
208    0.2354
209    0.2362
210    0.2372
211    0.2384
212    0.2394
213    0.2405
214    0.2417
215    0.2429
216    0.2442
217    0.2457
218    0.2471
219    0.2484
220    0.2500
221    0.2520
222    0.2536
223    0.2552
224    0.2567
225    0.2583
226    0.2600
227    0.2616
228    0.2634
229    0.2611
230    0.2628
231    0.2644
232    0.2661
233    0.2680
234    0.2698
235    0.2719
236    0.2738
237    0.2759
238    0.2780
239    0.2802
240    0.2826
241    0.2848
242    0.2872
243    0.2897
244    0.2922
245    0.2947
246    0.2975
247    0.3002
248    0.3030
249    0.3013
250    0.3042
251    0.3071
252    0.3100
253    0.3130
254    0.3161
255    0.3193
256    0.3227
257    0.3260
258    0.3293
259    0.3267
260    0.3298
261    0.3333
262    0.3368
263    0.3405
264    0.3442
265    0.3481
266    0.3521
267    0.3562
268    0.3603
269    0.3646
270    0.3689
